cnt,time,activity time
1,4.76837e-07,0,0,0
2,0.360978,0.360977,0,0,0
3,0.468542,0.468541,0,0,0
4,0.566699,0.566698,0,0,0
5,0.729056,0.729055,0,0,0
6,0.872745,0.872745,0,0,0
7,0.994392,0.994392,0,0,0
8,1.13699,1.13699,0,0,0
9,1.26882,1.26882,0,0,0
10,1.39408,1.39408,0,0,0
11,1.54801,1.54801,0,0,0
12,1.67648,1.67648,0,0,0
13,1.80998,1.80998,0,0,0
14,1.92168,1.92168,0,0,0
15,2.08962,2.08962,0,0,0
16,2.20926,2.20926,0,0,0
17,2.34259,2.34259,0,0,0
18,2.49411,2.49411,0,0,0
19,2.6426,2.6426,0,0,0
20,2.77313,2.77313,0,0,0
21,2.92887,2.92887,0,0,0
22,3.07707,3.07707,0,0,0
23,3.21243,3.21243,0,0,0
24,3.37005,3.37005,0,0,0
25,3.48061,3.48061,0,0,0
26,3.638,3.638,0,0,0
27,3.80453,3.80453,0,0,0
28,3.92173,3.92173,0,0,0
29,4.05305,4.05305,0,0,0
30,4.20064,4.20064,0,0,0
31,4.35268,4.35268,0,0,0
32,4.52525,4.52525,0,0,0
33,4.66175,4.66175,0,0,0
34,4.81125,4.81125,0,0,0
35,4.9574,4.9574,0,0,0
36,5.08177,5.08177,0,0,0
37,5.23315,5.23315,0,0,0
38,5.40705,5.40705,0,0,0
39,5.50572,5.50572,0,0,0
40,5.64172,5.64172,0,0,0
41,5.76642,5.76642,0,0,0
42,5.89978,5.89978,0,0,0
43,6.04187,6.04187,0,0,0
44,6.19657,6.19657,0,0,0
45,6.3115,6.3115,0,0,0
46,6.45879,6.45878,0,0,0
47,6.591,6.591,0,0,0
48,6.72161,6.72161,0,0,0
49,6.8233,6.8233,0,0,0
50,6.96818,6.96818,0,0,0
51,7.09932,7.09932,0,0,0
52,7.20675,7.20675,0,0,0
53,7.37154,7.37154,0,0,0
54,7.47984,7.47984,0,0,0
55,7.59839,7.59839,0,0,0
56,7.74078,7.74078,0,0,0
57,7.8712,7.87119,0,0,0
58,8.011,8.01099,0,0,0
59,8.14044,8.14044,0,0,0
60,8.27094,8.27093,0,0,0
61,8.41425,8.41424,0,0,0
62,8.53098,8.53098,0,0,0
63,8.67966,8.67966,0,0,0
64,8.77458,8.77458,0,0,0
65,8.91224,8.91224,0,0,0
66,9.04658,9.04657,0,0,0
67,9.1679,9.1679,0,0,0
68,9.30298,9.30297,0,0,0
69,9.44959,9.44958,0,0,0
70,9.5734,9.5734,0,0,0
71,9.68011,9.6801,0,0,0
72,9.81028,9.81027,0,0,0
73,9.94915,9.94915,0,0,0
74,10.2211,10.2211,0,0,0
75,10.3398,10.3398,0,0,0
76,10.4666,10.4666,0,0,0
77,10.5805,10.5805,0,0,0
78,10.7109,10.7109,0,0,0
79,10.8567,10.8567,0,0,0
80,10.9879,10.9879,0,0,0
81,11.1221,11.1221,0,0,0
82,11.2514,11.2514,0,0,0
83,11.3869,11.3869,0,0,0
84,11.5173,11.5173,0,0,0
85,11.6342,11.6342,0,0,0
86,11.7666,11.7666,0,0,0
87,11.9006,11.9006,0,0,0
88,12.043,12.043,0,0,0
89,12.1797,12.1796,0,0,0
90,12.3185,12.3185,0,0,0
91,12.4473,12.4473,0,0,0
92,12.5981,12.5981,0,0,0
93,12.7184,12.7184,0,0,0
94,12.8612,12.8612,0,0,0
95,13.0027,13.0027,0,0,0
96,13.148,13.148,0,0,0
97,13.291,13.291,0,0,0
98,13.42,13.4199,0,0,0,0
99,13.5714,13.5714,0,0,0,0
100,13.7083,13.7083,0,0,0,0,0
101,13.8594,13.8594,0,0,0,0,0
102,13.9933,13.9933,0,0,0,0,0
103,14.1467,14.1467,0,0,0,0,0
104,14.2894,14.2894,0,0,0,0,0
105,14.4435,14.4435,0,0,0,0,0
106,14.5934,14.5934,0,0,0,0,0
107,14.7165,14.7164,0,0,0,0,0
108,14.8497,14.8497,0,0,0,0,0
109,15.0235,15.0235,0,0,0,0,0
110,15.1569,15.1569,0,0,0,0,0
111,15.2929,15.2929,0,0,0,0,0
112,15.4213,15.4213,0,0,0,0,0,0
113,15.5862,15.5862,0,0,0,0,0,0
114,15.7174,15.7174,0,0,0,0,0,0
115,15.8774,15.8774,0,0,0,0,0,0
116,16.0096,16.0096,0,0,0,0,0,0
117,16.155,16.155,0,0,0,0,0,0
118,16.2872,16.2872,0,0,0,0,0,0
119,16.426,16.426,0,0,0,0,0,0
120,16.5607,16.5607,0,0,0,0,0,0
121,16.6906,16.6906,0,0,0,0,0,0
122,16.8291,16.8291,0,0,0,0,0,0,0
123,16.9544,16.9544,0,0,0,0,0,0,0
124,17.0795,17.0795,0,0,0,0,0,0,0
125,17.2153,17.2153,0,0,0,0,0,0,0
126,17.3655,17.3655,0,0,0,0,0,0,0
127,17.4811,17.4811,0,0,0,0,0,0,0
128,17.628,17.628,0,0,0,0,0,0,0,0
129,17.7666,17.7666,0,0,0,0,0,0,0,0
130,17.9159,17.9159,0,0,0,0,0,0,0,0
131,18.0584,18.0584,0,0,0,0,0,0,0,0
132,18.1978,18.1978,0,0,0,0,0,0,0,0
133,18.3471,18.3471,0,0,0,0,0,0,0,0,0
134,18.4849,18.4849,0,0,0,0,0,0,0,0,0
135,18.5934,18.5934,0,0,0,0,0,0,0,0,0
136,18.7186,18.7186,0,0,0,0,0,0,0,0,0
137,18.8391,18.8391,0,0,0,0,0,0,0,0,0
138,18.9945,18.9945,0,0,0,0,0,0,0,0,0
139,19.1087,19.1087,0,0,0,0,0,0,0,0,0
140,19.2569,19.2569,0,0,0,0,0,0,0,0,0
141,19.3674,19.3674,0,0,0,0,0,0,0,0,0
142,19.5198,19.5198,0,0,0,0,0,0,0,0,0
143,19.6543,19.6542,0,0,0,0,0,0,0,0,0
144,19.7781,19.7781,0,0,0,0,0,0,0,0,0
145,19.8846,19.8846,0,0,0,0,0,0,0,0,0
146,20.0112,20.0112,0,0,0,0,0,0,0,0,0
147,20.1432,20.1432,0,0,0,0,0,0,0,0,0
148,20.2766,20.2766,0,0,0,0,0,0,0,0,0
149,20.4386,20.4386,0,0,0,0,0,0,0,0,0
150,20.56,20.56,0,0,0,0,0,0,0,0,0
151,20.6886,20.6886,0,0,0,0,0,0,0,0,0
152,20.8199,20.8199,0,0,0,0,0,0,0,0,0
153,20.9403,20.9403,0,0,0,0,0,0,0,0,0
154,21.0618,21.0618,0,0,0,0,0,0,0,0,0
155,21.2219,21.2219,0,0,0,0,0,0,0,0,0
156,21.341,21.341,0,0,0,0,0,0,0,0,0
157,21.4339,21.4339,0,0,0,0,0,0,0,0,0
158,21.5814,21.5814,0,0,0,0,0,0,0,0,0
159,21.7141,21.7141,0,0,0,0,0,0,0,0,0
160,21.8393,21.8393,0,0,0,0,0,0,0,0,0
161,21.9655,21.9655,0,0,0,0,0,0,0,0,0
162,22.0893,22.0893,0,0,0,0,0,0,0,0,0
163,22.2167,22.2167,0,0,0,0,0,0,0,0,0
164,22.3225,22.3225,0,0,0,0,0,0,0,0,0
165,22.4388,22.4388,0,0,0,0,0,0,0,0,0
166,22.5738,22.5738,0,0,0,0,0,0,0,0,0
167,22.7079,22.7079,0,0,0,0,0,0,0,0,0
168,22.858,22.858,0,0,0,0,0,0,0,0,0
169,22.9794,22.9794,0,0,0,0,0,0,0,0,0
170,23.1149,23.1149,0,0,0,0,0,0,0,0,0
171,23.2088,23.2088,0,0,0,0,0,0,0,0,0
172,23.3511,23.3511,0,0,0,0,0,0,0,0,0
173,23.4745,23.4745,0,0,0,0,0,0,0,0,0
174,23.5995,23.5995,0,0,0,0,0,0,0,0,0
175,23.7136,23.7136,0,0,0,0,0,0,0,0,0
176,23.8653,23.8653,0,0,0,0,0,0,0,0,0
177,23.9809,23.9809,0,0,0,0,0,0,0,0,0
178,24.1193,24.1193,0,0,0,0,0,0,0,0,0
179,24.2634,24.2634,0,0,0,0,0,0,0,0,0
180,24.3979,24.3979,0,0,0,0,0,0,0,0,0
181,24.5645,24.5645,0,0,0,0,0,0,0,0,0
182,24.6816,24.6816,0,0,0,0,0,0,0,0,0
183,24.8267,24.8267,0,0,0,0,0,0,0,0,0
184,24.9651,24.9651,0,0,0,0,0,0,0,0,0
185,25.0908,25.0908,0,0,0,0,0,0,0,0,0
186,25.2286,25.2286,0,0,0,0,0,0,0,0,0
187,25.388,25.388,0,0,0,0,0,0,0,0,0
188,25.5177,25.5177,0,0,0,0,0,0,0,0,0
189,25.6555,25.6555,0,0,0,0,0,0,0,0,0
190,25.7928,25.7928,0,0,0,0,0,0,0,0,0
191,25.9237,25.9237,0,0,0,0,0,0,0,0,0
192,26.0593,26.0593,0,0,0,0,0,0,0,0,0
193,26.1944,26.1944,0,0,0,0,0,0,0,0,0
194,26.3233,26.3233,0,0,0,0,0,0,0,0,0
195,26.462,26.462,0,0,0,0,0,0,0,0,0
196,26.5862,26.5862,0,0,0,0,0,0,0,0,0
197,26.7342,26.7342,0,0,0,0,0,0,0,0,0
198,26.8325,26.8325,0,0,0,0,0,0,0,0,0
199,26.9791,26.9791,0,0,0,0,0,0,0,0,0
200,27.2142,27.2142,0,0,0,0,0,0,0,0,0
